WaveNumber	RAMAN	ROA
106.605	2.93365e+08	-140406  
109.821	2.67358e+08	-137187  
113.035	2.57474e+08	-104539  
116.248	2.48426e+08	-115066  
119.458	2.395e+08	-100479  
122.667	2.31128e+08	-104156  
125.874	2.22642e+08	-114649  
129.079	2.14082e+08	-99858.6  
132.283	2.05547e+08	-97619.8  
135.485	1.97459e+08	-60807.2  
138.685	1.89786e+08	-62535.6  
141.883	1.82594e+08	-74460.4  
145.079	1.76033e+08	-94383.4  
148.274	1.6993e+08	-61178.4  
151.467	1.64442e+08	-88102  
154.658	1.59135e+08	-53534  
157.847	1.54218e+08	-24980.6  
161.035	1.49596e+08	-47362.8  
164.22	1.45351e+08	-88612.4  
167.404	1.41505e+08	-52356.6  
170.587	1.38017e+08	-47026.4  
173.767	1.3493e+08	-28112.6  
176.946	1.32297e+08	-40791.4  
180.123	1.2997e+08	-33953.2  
183.298	1.27883e+08	-40994.4  
186.472	1.2594e+08	-29417.6  
189.643	1.24177e+08	-31343.2  
192.813	1.22529e+08	-43314.4  
195.981	1.2102e+08	-45547.4  
199.148	1.19491e+08	-43511.6  
202.312	1.18134e+08	-22962.2  
205.475	1.16877e+08	-26500.2  
208.636	1.15751e+08	-31784  
211.795	1.14841e+08	-26738  
214.953	1.14134e+08	-38454  
218.109	1.13609e+08	-38262.6  
221.263	1.13268e+08	-22997  
224.415	1.13112e+08	-46005.6  
227.565	1.12963e+08	-30461.6  
230.714	1.12917e+08	-53568.8  
233.861	1.12837e+08	-37531.8  
237.006	1.12735e+08	-27770.4  
240.15	1.12649e+08	-65493.6  
243.292	1.12425e+08	-37189.6  
246.432	1.12164e+08	-44300.4  
249.57	1.11866e+08	-61839.6  
252.706	1.11539e+08	-33982.2  
255.841	1.11248e+08	-46835  
258.974	1.1104e+08	-60691.2  
262.105	1.1097e+08	-63921.8  
265.234	1.11074e+08	-39706.8  
268.362	1.11361e+08	-48499.6  
271.488	1.11804e+08	-63701.4  
274.612	1.12459e+08	-64739.6  
277.735	1.13029e+08	-73515  
280.855	1.13266e+08	-96245.2  
283.974	1.12533e+08	-72065  
287.091	1.10948e+08	-60366.4  
290.207	1.0866e+08	-56248.4  
293.321	1.06321e+08	-54085  
296.432	1.04516e+08	-58359.6  
299.543	1.03309e+08	-37682.6  
302.651	1.02514e+08	-37183.8  
305.758	1.02014e+08	-27434  
308.863	1.01627e+08	-44207.6  
311.966	1.01434e+08	-40205.6  
315.067	1.01425e+08	-30850.2  
318.167	1.0157e+08	-34550.6  
321.265	1.01926e+08	-39730  
324.361	1.02201e+08	-33390.6  
327.455	1.0234e+08	-35815  
330.548	1.02418e+08	-31952.2  
333.639	1.02608e+08	-36464.6  
336.728	1.03118e+08	-35095.8  
339.816	1.03778e+08	-38715  
342.902	1.0454e+08	-24336.8  
345.986	1.05195e+08	-18884.8  
349.068	1.05822e+08	-27068.6  
352.148	1.06489e+08	-26558.2  
355.227	1.0713e+08	-31871  
358.304	1.07739e+08	-52501.6  
361.379	1.08277e+08	-48111  
364.453	1.08935e+08	-53574.6  
367.525	1.09776e+08	-50599.2  
370.595	1.10852e+08	-35426.4  
373.663	1.12124e+08	-36777.8  
376.73	1.13569e+08	-54485.2  
379.795	1.1504e+08	-41035  
382.858	1.16288e+08	-48383.6  
385.919	1.16923e+08	-62953.2  
388.979	1.16776e+08	-47873.2  
392.037	1.16141e+08	-55245  
395.093	1.15408e+08	-47867.4  
398.147	1.15048e+08	-37357.8  
401.2	1.15272e+08	-30832.8  
404.251	1.15797e+08	-32427.8  
407.3	1.16614e+08	-48435.8  
410.348	1.17581e+08	-46968.4  
413.394	1.1861e+08	-29806.2  
416.438	1.19627e+08	-55268.2  
419.48	1.2067e+08	-46081  
422.521	1.21646e+08	-40078  
425.559	1.22487e+08	-45182  
428.597	1.23122e+08	-36522.6  
431.632	1.23437e+08	-53725.4  
434.666	1.2346e+08	-34904.4  
437.698	1.23415e+08	-59096.2  
440.728	1.23557e+08	-39799.6  
443.756	1.23716e+08	-31476.6  
446.783	1.24142e+08	-29881.6  
449.808	1.24705e+08	-36250  
452.832	1.25336e+08	-69286.8  
455.853	1.26074e+08	-49607.4  
458.873	1.26898e+08	-38245.2  
461.891	1.27826e+08	-12191.6  
464.908	1.28738e+08	-44039.4  
467.922	1.29552e+08	-28895.6  
470.935	1.30211e+08	-47658.6  
473.947	1.30783e+08	-57657.8  
476.956	1.3136e+08	-38564.2  
479.964	1.32009e+08	-48383.6  
482.97	1.32758e+08	-35548.2  
485.974	1.33709e+08	-45454.6  
488.977	1.34821e+08	-49317.4  
491.978	1.36141e+08	-55448  
494.977	1.37478e+08	-63086.6  
497.975	1.38607e+08	-71415.4  
500.97	1.38642e+08	-65696.6  
503.965	1.37385e+08	-47368.6  
506.957	1.35449e+08	-39625.6  
509.947	1.3366e+08	-21106.2  
512.936	1.32579e+08	-23426.2  
515.924	1.32117e+08	-23501.6  
518.909	1.32053e+08	-14656.6  
521.893	1.3211e+08	-4193.4  
524.875	1.32226e+08	-18415  
527.855	1.32239e+08	-10683.6  
530.834	1.32153e+08	8305.6  
533.811	1.3199e+08	10428.4  
536.786	1.31829e+08	-701.8  
539.759	1.31674e+08	15271.4  
542.731	1.31524e+08	7284.8  
545.701	1.31473e+08	25578  
548.67	1.31521e+08	28350.4  
551.636	1.31806e+08	24603.6  
554.601	1.32176e+08	12864.4  
557.565	1.32683e+08	8311.4  
560.526	1.3313e+08	17736.4  
563.486	1.3326e+08	23356.6  
566.444	1.33138e+08	13398  
569.4	1.32941e+08	13728.6  
572.355	1.32738e+08	35600.4  
575.308	1.32665e+08	9813.6  
578.259	1.32742e+08	16338.6  
581.209	1.32888e+08	39793.8  
584.157	1.33295e+08	21570.2  
587.103	1.33708e+08	25398.2  
590.047	1.34285e+08	24574.6  
592.99	1.34881e+08	27596.4  
595.931	1.35525e+08	16013.8  
598.871	1.36224e+08	11112.8  
601.808	1.37007e+08	18293.2  
604.744	1.3785e+08	27329.6  
607.678	1.38702e+08	3990.4  
610.611	1.39604e+08	17382.6  
613.542	1.40483e+08	25966.6  
616.471	1.41594e+08	23327.6  
619.398	1.42908e+08	-2285.2  
622.324	1.44584e+08	11646.4  
625.248	1.46548e+08	21924  
628.171	1.48748e+08	36650.2  
631.091	1.51046e+08	-2627.4  
634.01	1.52868e+08	-25467.8  
636.927	1.5378e+08	-3567  
639.843	1.53826e+08	-4634.2  
642.757	1.53569e+08	2360.6  
645.669	1.53789e+08	-23994.6  
648.579	1.54816e+08	9929.6  
651.488	1.56577e+08	-6861.4  
654.395	1.58727e+08	-609  
657.301	1.60598e+08	-5092.4  
660.204	1.61652e+08	-12910.8  
663.107	1.61715e+08	-11414.4  
666.007	1.61163e+08	17463.8  
668.905	1.60556e+08	-9442.4  
671.802	1.60226e+08	5486.8  
674.698	1.60427e+08	13241.4  
677.591	1.6088e+08	5144.6  
680.483	1.61206e+08	17597.2  
683.373	1.61175e+08	15294.6  
686.262	1.60682e+08	27637  
689.149	1.59904e+08	36487.8  
692.034	1.59202e+08	39329.8  
694.917	1.58908e+08	17632  
697.799	1.59157e+08	36487.8  
700.679	1.59906e+08	23043.4  
703.557	1.60973e+08	43494.2  
706.434	1.62185e+08	51660.6  
709.309	1.63008e+08	6380  
712.182	1.63364e+08	25984  
715.054	1.63342e+08	47821  
717.924	1.63425e+08	44816.6  
720.792	1.63786e+08	28947.8  
723.659	1.64505e+08	49897.4  
726.524	1.65461e+08	56190.4  
729.387	1.6664e+08	53487.6  
732.248	1.6807e+08	30380.4  
735.108	1.69584e+08	29655.4  
737.967	1.71207e+08	30618.2  
740.823	1.72818e+08	28460.6  
743.678	1.74367e+08	55790.2  
746.531	1.759e+08	9570  
749.383	1.77455e+08	27225.2  
752.232	1.78967e+08	42212.4  
755.08	1.80556e+08	12806.4  
757.927	1.82278e+08	52188.4  
760.772	1.84488e+08	42229.8  
763.615	1.87455e+08	-10590.8  
766.456	1.91055e+08	-14859.6  
769.296	1.94862e+08	-1119.4  
772.134	1.97928e+08	-12139.4  
774.97	1.99859e+08	-42177.6  
777.805	2.01311e+08	-2755  
780.638	2.03565e+08	-3584.4  
783.469	2.07171e+08	-26268.2  
786.299	2.11738e+08	-7018  
789.127	2.16689e+08	-34979.8  
791.954	2.21184e+08	-64037.8  
794.778	2.25007e+08	-56126.6  
797.601	2.2862e+08	-49758.2  
800.423	2.32756e+08	-46272.4  
803.242	2.37754e+08	-65673.4  
806.06	2.44067e+08	-64983.2  
808.877	2.51427e+08	-109144  
811.691	2.59752e+08	-105792  
814.504	2.68538e+08	-97712.6  
817.316	2.77267e+08	-183384  
820.125	2.84648e+08	-158346  
822.933	2.89462e+08	-198064  
825.74	2.91435e+08	-179145  
828.544	2.91567e+08	-157511  
831.347	2.9119e+08	-141416  
834.149	2.91157e+08	-118297  
836.948	2.91287e+08	-133719  
839.746	2.90734e+08	-125106  
842.543	2.89128e+08	-144669  
845.337	2.86633e+08	-121562  
848.13	2.83929e+08	-106378  
850.922	2.81354e+08	-98640.6  
853.712	2.79193e+08	-89157.6  
856.5	2.7769e+08	-72546.4  
859.286	2.76833e+08	-74361.8  
862.071	2.76253e+08	-77812.8  
864.854	2.7607e+08	-55378.4  
867.635	2.76672e+08	-55883  
870.415	2.79064e+08	-57083.6  
873.193	2.83368e+08	-85451.4  
875.969	2.89437e+08	-85138.2  
878.744	2.96857e+08	-111679  
881.517	3.0512e+08	-132170  
884.289	3.13511e+08	-133290  
887.059	3.21473e+08	-135679  
889.827	3.28644e+08	-150991  
892.593	3.3543e+08	-137530  
895.358	3.42502e+08	-143660  
898.121	3.50605e+08	-120066  
900.883	3.582e+08	-112131  
903.643	3.63916e+08	-148863  
906.401	3.65682e+08	-126910  
909.158	3.63366e+08	-139229  
911.913	3.57947e+08	-157099  
914.666	3.51173e+08	-134287  
917.418	3.45323e+08	-129294  
920.168	3.42053e+08	-114863  
922.916	3.41711e+08	-107781  
925.663	3.44285e+08	-125083  
928.408	3.49234e+08	-158636  
931.151	3.56012e+08	-171552  
933.893	3.64565e+08	-224512  
936.633	3.74525e+08	-230388  
939.371	3.85989e+08	-244441  
942.108	3.99083e+08	-287390  
944.843	4.14706e+08	-323947  
947.577	4.33003e+08	-349850  
950.309	4.54312e+08	-477305  
953.039	4.79549e+08	-518827  
955.768	5.09296e+08	-632200  
958.495	5.44983e+08	-757207  
961.22	5.87917e+08	-943179  
963.944	6.41113e+08	-1.11565e+06  
966.666	7.06125e+08	-1.45432e+06  
969.386	7.8697e+08	-1.8269e+06  
972.105	8.85391e+08	-2.22261e+06  
974.822	9.99814e+08	-2.86897e+06  
977.537	1.12018e+09	-3.51696e+06  
980.251	1.22487e+09	-4.19747e+06  
982.963	1.28121e+09	-4.63732e+06  
985.674	1.26242e+09	-4.66207e+06  
988.383	1.16376e+09	-4.2313e+06  
991.09	1.00995e+09	-3.36311e+06  
993.796	8.4298e+08	-2.52266e+06  
996.5	6.99173e+08	-1.74258e+06  
999.202	5.93623e+08	-1.22145e+06  
1001.9	5.23567e+08	-816089  
1004.6	4.77928e+08	-554115  
1007.3	4.47665e+08	-439130  
1010	4.26982e+08	-301293  
1012.69	4.12508e+08	-227093  
1015.38	4.02674e+08	-168293  
1018.07	3.96788e+08	-177747  
1020.76	3.93649e+08	-168235  
1023.45	3.92604e+08	-108263  
1026.14	3.93342e+08	-89610  
1028.82	3.95707e+08	-75713.2  
1031.5	3.99552e+08	-87284.2  
1034.18	4.04757e+08	-73660  
1036.86	4.10978e+08	-81994.6  
1039.54	4.18142e+08	-100062  
1042.22	4.26313e+08	-43094  
1044.89	4.35448e+08	-53818.2  
1047.57	4.45498e+08	-63933.4  
1050.24	4.57153e+08	-67280  
1052.91	4.70611e+08	-92394  
1055.57	4.85641e+08	-94000.6  
1058.24	5.02121e+08	-118535  
1060.91	5.18205e+08	-91848.8  
1063.57	5.3245e+08	-170421  
1066.23	5.43174e+08	-107370  
1068.89	5.48058e+08	-133516  
1071.55	5.46621e+08	-146786  
1074.21	5.38878e+08	-106442  
1076.86	5.26014e+08	-120286  
1079.51	5.10331e+08	-131689  
1082.17	4.94092e+08	-128505  
1084.82	4.78733e+08	-102776  
1087.47	4.64915e+08	-87145  
1090.11	4.52834e+08	-96715  
1092.76	4.43067e+08	-125808  
1095.4	4.35245e+08	-102967  
1098.04	4.28759e+08	-106674  
1100.68	4.23148e+08	-120478  
1103.32	4.17604e+08	-127351  
1105.96	4.14108e+08	-129114  
1108.6	4.1219e+08	-120965  
1111.23	4.12953e+08	-161002  
1113.86	4.16983e+08	-214223  
1116.49	4.24239e+08	-237829  
1119.12	4.35781e+08	-319458  
1121.75	4.52073e+08	-426955  
1124.38	4.74466e+08	-583312  
1127	5.02803e+08	-781364  
1129.62	5.33227e+08	-999381  
1132.24	5.54337e+08	-1.16955e+06  
1134.86	5.52985e+08	-1.18527e+06  
1137.48	5.25444e+08	-1.05258e+06  
1140.1	4.81044e+08	-814796  
1142.71	4.35814e+08	-543077  
1145.33	4.00592e+08	-367047  
1147.94	3.76462e+08	-241790  
1150.55	3.59627e+08	-160643  
1153.16	3.47183e+08	-84540.8  
1155.76	3.3755e+08	-66984.2  
1158.37	3.29916e+08	-52983  
1160.97	3.23744e+08	18560  
1163.57	3.18564e+08	19783.8  
1166.17	3.14204e+08	49474  
1168.77	3.10545e+08	65563.2  
1171.37	3.07294e+08	54763.6  
1173.96	3.04609e+08	44422.2  
1176.56	3.02116e+08	85596.4  
1179.15	2.99915e+08	45715.6  
1181.74	2.97845e+08	84390  
1184.33	2.9579e+08	77511.2  
1186.92	2.93611e+08	62466  
1189.5	2.91292e+08	103843  
1192.09	2.88898e+08	59757.4  
1194.67	2.86884e+08	107596  
1197.25	2.85142e+08	89865.2  
1199.83	2.83732e+08	108541  
1202.41	2.82478e+08	101158  
1204.98	2.81434e+08	138864  
1207.56	2.80667e+08	101564  
1210.13	2.80031e+08	115374  
1212.7	2.79729e+08	133243  
1215.27	2.79519e+08	70481.6  
1217.84	2.79192e+08	114011  
1220.41	2.78889e+08	119254  
1222.97	2.78635e+08	124503  
1225.54	2.78302e+08	103315  
1228.1	2.77882e+08	123383  
1230.66	2.77034e+08	112642  
1233.22	2.75891e+08	118616  
1235.77	2.74715e+08	117583  
1238.33	2.73832e+08	116232  
1240.88	2.73415e+08	149976  
1243.44	2.73422e+08	136758  
1245.99	2.73543e+08	123499  
1248.54	2.73578e+08	110333  
1251.08	2.73274e+08	116516  
1253.63	2.72863e+08	139038  
1256.17	2.72112e+08	126196  
1258.72	2.70989e+08	122780  
1261.26	2.69531e+08	135650  
1263.8	2.68502e+08	135987  
1266.33	2.67482e+08	119898  
1268.87	2.66779e+08	144513  
1271.41	2.66251e+08	109910  
1273.94	2.65916e+08	149971  
1276.47	2.65885e+08	129920  
1279	2.66109e+08	138823  
1281.53	2.66725e+08	151171  
1284.06	2.67648e+08	128487  
1286.58	2.68744e+08	139148  
1289.1	2.70176e+08	148787  
1291.63	2.71711e+08	134055  
1294.15	2.73265e+08	141671  
1296.67	2.75047e+08	153538  
1299.18	2.7697e+08	121168  
1301.7	2.78642e+08	118477  
1304.21	2.80218e+08	114324  
1306.73	2.81116e+08	133191  
1309.24	2.81642e+08	117027  
1311.75	2.81582e+08	102039  
1314.25	2.80148e+08	158479  
1316.76	2.78322e+08	138701  
1319.27	2.76604e+08	129102  
1321.77	2.74874e+08	117444  
1324.27	2.73465e+08	152401  
1326.77	2.72416e+08	118662  
1329.27	2.71592e+08	165810  
1331.77	2.71034e+08	146108  
1334.26	2.70721e+08	133383  
1336.75	2.70647e+08	132083  
1339.25	2.70741e+08	176732  
1341.74	2.71087e+08	152801  
1344.23	2.71278e+08	151119  
1346.71	2.71415e+08	131051  
1349.2	2.71436e+08	131295  
1351.68	2.71312e+08	132083  
1354.17	2.70914e+08	155446  
1356.65	2.70211e+08	126150  
1359.13	2.69438e+08	133899  
1361.6	2.6868e+08	134554  
1364.08	2.68084e+08	151473  
1366.56	2.67826e+08	142129  
1369.03	2.67489e+08	154123  
1371.5	2.67266e+08	128632  
1373.97	2.66944e+08	155771  
1376.44	2.66621e+08	141775  
1378.91	2.66416e+08	139815  
1381.37	2.66367e+08	166095  
1383.84	2.66382e+08	127211  
1386.3	2.6676e+08	126022  
1388.76	2.66992e+08	171199  
1391.22	2.67174e+08	152581  
1393.68	2.67335e+08	144919  
1396.13	2.6732e+08	167678  
1398.59	2.67255e+08	143707  
1401.04	2.67193e+08	154976  
1403.49	2.67066e+08	157377  
1405.94	2.67106e+08	136317  
1408.39	2.67528e+08	147558  
1410.83	2.68317e+08	159773  
1413.28	2.69417e+08	159030  
1415.72	2.70995e+08	157621  
1418.17	2.73163e+08	138284  
1420.61	2.76038e+08	143666  
1423.04	2.79385e+08	156351  
1425.48	2.8286e+08	130715  
1427.92	2.8556e+08	156884  
1430.35	2.87485e+08	111116  
1432.78	2.89048e+08	137617  
1435.22	2.90397e+08	160063  
1437.65	2.91656e+08	183935  
1440.07	2.92805e+08	141108  
1442.5	2.94409e+08	133359  
1444.92	2.96316e+08	139072  
1447.35	2.98641e+08	124857  
1449.77	3.00677e+08	134740  
1452.19	3.01721e+08	134345  
1454.61	3.01785e+08	197710  
1457.03	3.00992e+08	137211  
1459.44	2.99939e+08	128250  
1461.85	2.98357e+08	169679  
1464.27	2.96091e+08	156322  
1466.68	2.929e+08	138771  
1469.09	2.89062e+08	137785  
1471.5	2.85151e+08	157777  
1473.9	2.81274e+08	148260  
1476.31	2.77525e+08	163137  
1478.71	2.7375e+08	137361  
1481.11	2.70285e+08	130767  
1483.51	2.66991e+08	167887  
1485.91	2.64239e+08	173084  
1488.31	2.61958e+08	157522  
1490.7	2.60032e+08	177932  
1493.1	2.58376e+08	155336  
1495.49	2.5698e+08	158462  
1497.88	2.55997e+08	191464  
1500.27	2.55041e+08	166767  
1502.66	2.54266e+08	162928  
1505.04	2.53525e+08	174882  
1507.43	2.52853e+08	131938  
1509.81	2.52352e+08	154135  
1512.19	2.51877e+08	161507  
1514.57	2.51489e+08	174551  
1516.95	2.51109e+08	169957  
1519.33	2.50761e+08	191626  
1521.7	2.50453e+08	160492  
1524.08	2.50134e+08	169343  
1526.45	2.49889e+08	155347  
1528.82	2.49738e+08	159622  
1531.19	2.49553e+08	161310  
1533.56	2.49332e+08	207704  
1535.92	2.49167e+08	172707  
1538.29	2.48927e+08	187357  
1540.65	2.48805e+08	198470  
1543.01	2.48573e+08	165068  
1545.37	2.48516e+08	191371  
1547.73	2.48399e+08	168194  
1550.09	2.48442e+08	172475  
1552.44	2.48339e+08	178292  
1554.79	2.48188e+08	167887  
1557.15	2.4801e+08	167388  
1559.5	2.47764e+08	197681  
1561.85	2.47528e+08	170671  
1564.19	2.47362e+08	194439  
1566.54	2.47121e+08	189358  
1568.89	2.46928e+08	164993  
1571.23	2.46713e+08	148979  
1573.57	2.46478e+08	176819  
1575.91	2.46281e+08	181871  
1578.25	2.46013e+08	195582  
1580.59	2.45968e+08	172034  
1582.92	2.45808e+08	174922  
1585.26	2.4572e+08	169824  
1587.59	2.45549e+08	185426  
1589.92	2.45306e+08	190837  
1592.25	2.45078e+08	177637  
1594.58	2.44861e+08	173339  
1596.9	2.44674e+08	184608  
1599.23	2.44631e+08	177196  
1601.55	2.44611e+08	194654  
1603.87	2.44713e+08	161252  
1606.19	2.44641e+08	193349  
1608.51	2.44299e+08	170856  
1610.83	2.4383e+08	162702  
1613.14	2.43409e+08	185356  
1615.46	2.43008e+08	179348  
1617.77	2.42779e+08	209223  
1620.08	2.42444e+08	181691  
1622.39	2.42303e+08	196092  
1624.7	2.42105e+08	174104  
1627.01	2.41868e+08	172492  
1629.31	2.41977e+08	173327  
1631.61	2.4185e+08	173379  
1633.92	2.41817e+08	184167  
1636.22	2.41722e+08	148967  
1638.52	2.41729e+08	177468  
1640.81	2.41688e+08	168432  
1643.11	2.41584e+08	160416  
1645.4	2.41542e+08	171291  
1647.7	2.41436e+08	179150  
1649.99	2.41283e+08	185084  
1652.28	2.4119e+08	171842  
1654.57	2.41031e+08	161768  
1656.85	2.41013e+08	183773  
1659.14	2.40856e+08	160538  
1661.42	2.40738e+08	137077  
1663.71	2.40591e+08	166332  
1665.99	2.40418e+08	163560  
1668.27	2.40313e+08	185733  
1670.54	2.40085e+08	158821  
1672.82	2.3989e+08	184510  
1675.09	2.39616e+08	156809  
1677.37	2.39476e+08	170555  
1679.64	2.39156e+08	161687  
1681.91	2.38883e+08	183854  
1684.18	2.386e+08	159053  
1686.45	2.38314e+08	172910  
1688.71	2.38099e+08	155782  
1690.98	2.3781e+08	189086  
1693.24	2.37636e+08	158102  
1695.5	2.37404e+08	178077  
1697.76	2.37186e+08	154083  
1700.02	2.37011e+08	161281  
1702.27	2.36901e+08	171013  
1704.53	2.36829e+08	150092  
1706.78	2.36741e+08	151194  
1709.04	2.36647e+08	167139  
1711.29	2.36736e+08	177637  
1713.54	2.36873e+08	152691  
1715.78	2.37071e+08	180786  
1718.03	2.37266e+08	137199  
1720.27	2.37432e+08	155440  
1722.52	2.3762e+08	164268  
1724.76	2.37907e+08	155260  
1727	2.38173e+08	158862  
1729.24	2.38633e+08	137303  
1731.47	2.39192e+08	150986  
1733.71	2.40035e+08	133557  
1735.94	2.40845e+08	121800  
1738.18	2.41756e+08	132356  
1740.41	2.42844e+08	120135  
1742.64	2.44143e+08	104087  
1744.87	2.45522e+08	103965  
1747.09	2.46972e+08	103582  
1749.32	2.485e+08	93641  
1751.54	2.50038e+08	110333  
1753.76	2.51409e+08	63475.2  
1755.99	2.52692e+08	62425.4  
1758.2	2.53543e+08	79686.2  
1760.42	2.54126e+08	64722.2  
1762.64	2.5412e+08	88264.4  
1764.85	2.53889e+08	72070.8  
1767.07	2.53309e+08	45849  
1769.28	2.52601e+08	89099.6  
1771.49	2.51742e+08	50639.8  
1773.7	2.50882e+08	78079.6  
1775.91	2.49878e+08	104481  
1778.11	2.48929e+08	69814.6  
1780.32	2.48021e+08	102034  
1782.52	2.471e+08	88490.6  
1784.72	2.46183e+08	82684.8  
1786.92	2.45307e+08	80973.8  
1789.12	2.44206e+08	80562  
1791.32	2.42987e+08	81084  
1793.51	2.41503e+08	68364.6  
1795.71	2.39841e+08	98924.8  
1797.9	2.37995e+08	82215  
1800.09	2.36254e+08	84250.8  
1802.28	2.34638e+08	105108  
1804.47	2.33071e+08	113784  
1806.65	2.31715e+08	123888  
1808.84	2.30413e+08	144896  
1811.02	2.29231e+08	122055  
1813.2	2.28155e+08	132605  
1815.38	2.27095e+08	139171  
1817.56	2.26098e+08	177753  
1819.74	2.25248e+08	135221  
1821.92	2.24482e+08	142146  
1824.09	2.23751e+08	147993  
1826.27	2.2319e+08	162046  
1828.44	2.22545e+08	134757  
1830.61	2.21883e+08	150881  
1832.78	2.21305e+08	158207  
1834.94	2.20839e+08	125251  
1837.11	2.20398e+08	148625  
1839.27	2.20035e+08	136886  
1841.44	2.19577e+08	165532  
1843.6	2.19231e+08	138487  
1845.76	2.18973e+08	149704  
1847.92	2.18674e+08	139629  
1850.07	2.18436e+08	146636  
1852.23	2.1816e+08	160985  
1854.38	2.17984e+08	164447  
1856.54	2.17854e+08	142599  
1858.69	2.17765e+08	145099  
1860.84	2.17683e+08	164204  
1862.99	2.17691e+08	137489  
1865.13	2.1752e+08	133238  
1867.28	2.17529e+08	144571  
1869.42	2.17538e+08	137048  
1871.56	2.17537e+08	134693  
1873.71	2.17586e+08	158856  
1875.85	2.17675e+08	133847  
1877.98	2.17788e+08	153393  
1880.12	2.17887e+08	150191  
1882.25	2.18101e+08	168548  
1884.39	2.18284e+08	135070  
1886.52	2.18434e+08	146897  
1888.65	2.18524e+08	122653  
1890.78	2.18775e+08	124132  
1892.91	2.19014e+08	116000  
1895.03	2.19224e+08	147587  
1897.16	2.19427e+08	139589  
1899.28	2.19629e+08	131074  
1901.4	2.1971e+08	142570  
1903.53	2.19921e+08	132988  
1905.64	2.20044e+08	127948  
1907.76	2.20229e+08	122937  
1909.88	2.20256e+08	115379  
1911.99	2.20288e+08	94429.8  
1914.11	2.20542e+08	133371  
1916.22	2.2063e+08	133632  
1918.33	2.20623e+08	129468  
1920.44	2.20708e+08	108530  
1922.54	2.20768e+08	134630  
1924.65	2.20772e+08	108785  
1926.75	2.2086e+08	101587  
1928.86	2.21073e+08	101175  
1930.96	2.21226e+08	97898.2  
1933.06	2.21598e+08	117224  
1935.16	2.21783e+08	86275  
1937.25	2.22072e+08	118929  
1939.35	2.22281e+08	129491  
1941.44	2.22666e+08	106998  
1943.54	2.2292e+08	100427  
1945.63	2.23299e+08	99829.6  
1947.72	2.23608e+08	111580  
1949.81	2.23873e+08	109057  
1951.89	2.2414e+08	86083.6  
1953.98	2.24251e+08	83357.6  
1956.06	2.24323e+08	89934.8  
1958.15	2.2436e+08	106668  
1960.23	2.2422e+08	66004  
1962.31	2.2399e+08	87075.4  
1964.39	2.23717e+08	110797  
1966.46	2.23339e+08	78961.2  
1968.54	2.22895e+08	88247  
1970.61	2.22395e+08	128511  
1972.68	2.21881e+08	62622.6  
1974.76	2.21489e+08	64606.2  
1976.82	2.21203e+08	95787  
1978.89	2.20912e+08	95166.4  
1980.96	2.20759e+08	89714.4  
1983.03	2.20757e+08	102266  
1985.09	2.20803e+08	93896.2  
1987.15	2.20949e+08	101726  
1989.21	2.21088e+08	87736.6  
1991.27	2.21465e+08	82969  
1993.33	2.21858e+08	79320.8  
1995.39	2.22407e+08	72703  
1997.44	2.22978e+08	78955.4  
1999.5	2.23711e+08	71392.2  
2001.55	2.24473e+08	85608  
2003.6	2.25471e+08	66091  
2005.65	2.26281e+08	88960.4  
2007.7	2.27466e+08	62976.4  
2009.74	2.28532e+08	51811.4  
2011.79	2.29808e+08	56805.2  
2013.83	2.31209e+08	54009.6  
2015.87	2.32808e+08	36795.2  
2017.92	2.34615e+08	8439  
2019.96	2.36662e+08	15845.6  
2021.99	2.39222e+08	-10909.8  
2024.03	2.42425e+08	-29997.6  
2026.06	2.46346e+08	-21326.6  
2028.1	2.51312e+08	-88635.6  
2030.13	2.57368e+08	-139049  
2032.16	2.65052e+08	-186261  
2034.19	2.74542e+08	-230347  
2036.22	2.86278e+08	-288886  
2038.25	3.00683e+08	-364286  
2040.27	3.18214e+08	-431363  
2042.29	3.39304e+08	-514715  
2044.32	3.64349e+08	-648765  
2046.34	3.93918e+08	-748304  
2048.36	4.28814e+08	-950945  
2050.38	4.69886e+08	-1.13181e+06  
2052.39	5.18655e+08	-1.41124e+06  
2054.41	5.77004e+08	-1.74803e+06  
2056.42	6.48434e+08	-2.13493e+06  
2058.43	7.37722e+08	-2.59091e+06  
2060.44	8.50449e+08	-3.28333e+06  
2062.45	9.93412e+08	-4.18993e+06  
2064.46	1.17089e+09	-5.27107e+06  
2066.47	1.38919e+09	-6.66273e+06  
2068.47	1.65896e+09	-8.43265e+06  
2070.48	1.98442e+09	-1.05402e+07  
2072.48	2.33782e+09	-1.28868e+07  
2074.48	2.63316e+09	-1.48167e+07  
2076.48	2.76387e+09	-1.575e+07  
2078.48	2.66523e+09	-1.51735e+07  
2080.47	2.36909e+09	-1.31474e+07  
2082.47	1.98143e+09	-1.08007e+07  
2084.46	1.61432e+09	-8.31454e+06  
2086.46	1.32485e+09	-6.42828e+06  
2088.45	1.11485e+09	-5.09387e+06  
2090.44	9.63052e+08	-4.14201e+06  
2092.42	8.4792e+08	-3.43743e+06  
2094.41	7.57405e+08	-2.84844e+06  
2096.4	6.84803e+08	-2.45693e+06  
2098.38	6.26648e+08	-2.11471e+06  
2100.36	5.79838e+08	-1.80511e+06  
2102.34	5.42054e+08	-1.64259e+06  
2104.32	5.11762e+08	-1.42555e+06  
2106.3	4.88184e+08	-1.32387e+06  
2108.28	4.69946e+08	-1.20638e+06  
2110.25	4.5662e+08	-1.14368e+06  
2112.23	4.4776e+08	-1.10998e+06  
2114.2	4.42784e+08	-1.06742e+06  
2116.17	4.41632e+08	-1.07901e+06  
2118.14	4.44223e+08	-1.09258e+06  
2120.11	4.50445e+08	-1.12577e+06  
2122.08	4.60697e+08	-1.21059e+06  
2124.04	4.74409e+08	-1.28675e+06  
2126.01	4.92031e+08	-1.40793e+06  
2127.97	5.12855e+08	-1.49077e+06  
2129.93	5.36521e+08	-1.60242e+06  
2131.89	5.61781e+08	-1.76102e+06  
2133.85	5.86378e+08	-1.95254e+06  
2135.81	6.07522e+08	-2.07376e+06  
2137.76	6.21853e+08	-2.17075e+06  
2139.72	6.26625e+08	-2.19123e+06  
2141.67	6.20669e+08	-2.13475e+06  
2143.62	6.04395e+08	-2.04545e+06  
2145.57	5.81418e+08	-1.91174e+06  
2147.52	5.54644e+08	-1.69689e+06  
2149.47	5.2697e+08	-1.55947e+06  
2151.41	5.00852e+08	-1.31969e+06  
2153.36	4.77598e+08	-1.19088e+06  
2155.3	4.57038e+08	-1.10484e+06  
2157.24	4.39484e+08	-949791  
2159.18	4.23958e+08	-847067  
2161.12	4.10643e+08	-737302  
2163.06	3.98985e+08	-677353  
2164.99	3.88948e+08	-632983  
2166.93	3.80479e+08	-589170  
2168.86	3.73419e+08	-521432  
2170.79	3.67513e+08	-483442  
2172.72	3.62605e+08	-398251  
2174.65	3.58594e+08	-402694  
2176.58	3.54723e+08	-377423  
2178.51	3.52308e+08	-349288  
2180.43	3.50642e+08	-336586  
2182.36	3.49406e+08	-298822  
2184.28	3.48871e+08	-291583  
2186.2	3.48991e+08	-272971  
2188.12	3.49695e+08	-233595  
2190.04	3.51047e+08	-266742  
2191.95	3.53089e+08	-250328  
2193.87	3.55878e+08	-254028  
2195.78	3.5909e+08	-260403  
2197.69	3.63112e+08	-251877  
2199.6	3.6772e+08	-234245  
2201.51	3.73141e+08	-237661  
2203.42	3.79123e+08	-239030  
2205.33	3.85766e+08	-233978  
2207.23	3.92681e+08	-218567  
2209.14	3.99872e+08	-242040  
2211.04	4.07272e+08	-271046  
2212.94	4.14558e+08	-253634  
2214.84	4.21346e+08	-277547  
2216.74	4.27572e+08	-267049  
2218.64	4.33012e+08	-303607  
2220.53	4.37636e+08	-307533  
2222.43	4.41335e+08	-336545  
2224.32	4.44353e+08	-320148  
2226.21	4.46932e+08	-329713  
2228.1	4.49119e+08	-391680  
2229.99	4.51724e+08	-410066  
2231.88	4.5546e+08	-420326  
2233.76	4.59829e+08	-423400  
2235.65	4.65057e+08	-497014  
2237.53	4.71051e+08	-536552  
2239.41	4.78157e+08	-571062  
2241.3	4.8591e+08	-671327  
2243.17	4.93757e+08	-700681  
2245.05	5.00783e+08	-707385  
2246.93	5.06425e+08	-761209  
2248.8	5.09749e+08	-812957  
2250.68	5.10542e+08	-860418  
2252.55	5.08034e+08	-858823  
2254.42	5.02518e+08	-919120  
2256.29	4.93858e+08	-907694  
2258.16	4.82507e+08	-924862  
2260.02	4.68448e+08	-852339  
2261.89	4.51919e+08	-842172  
2263.75	4.33904e+08	-803950  
2265.62	4.14699e+08	-748734  
2267.48	3.95003e+08	-667220  
2269.34	3.75415e+08	-555217  
2271.2	3.56672e+08	-549782  
2273.05	3.38828e+08	-457040  
2274.91	3.22571e+08	-380068  
2276.76	3.08077e+08	-317765  
2278.62	2.94921e+08	-306542  
2280.47	2.83291e+08	-227464  
2282.32	2.7305e+08	-182630  
2284.17	2.6379e+08	-202263  
2286.01	2.55479e+08	-139664  
2287.86	2.48047e+08	-163374  
2289.7	2.413e+08	-131382  
2291.55	2.35165e+08	-114840  
2293.39	2.29476e+08	-117549  
2295.23	2.244e+08	-85016.4  
2297.07	2.19598e+08	-77702.6  
2298.91	2.15104e+08	-97550.2  
2300.74	2.10835e+08	-80289.4  
2302.58	2.06981e+08	-68950.4  
2304.41	2.03343e+08	-68486.4  
2306.25	1.9989e+08	-36998.2  
2308.08	1.96635e+08	-50692  
2309.91	1.93621e+08	-55575.6  
2311.73	1.90855e+08	-33199.2  
2313.56	1.88159e+08	-49189.8  
2315.39	1.85586e+08	-43517.4  
2317.21	1.83064e+08	-39271.8  
2319.03	1.80677e+08	-54433  
2320.86	1.78456e+08	-60209.8  
2322.68	1.76289e+08	-37694.2  
2324.5	1.74276e+08	-54125.6  
2326.31	1.72324e+08	-36905.4  
2328.13	1.70307e+08	-48981  
2329.94	1.68535e+08	-34057.6  
2331.76	1.66714e+08	-55042  
2333.57	1.64977e+08	-66792.8  
2335.38	1.63316e+08	-52281.2  
2337.19	1.61719e+08	-51283.6  
2339	1.60187e+08	-51968  
2340.8	1.58782e+08	-61607.6  
2342.61	1.57349e+08	-24713.8  
2344.41	1.55987e+08	-55633.6  
2346.22	1.54648e+08	-64693.2  
2348.02	1.53392e+08	-57733.2  
2349.82	1.52155e+08	-35403.2  
2351.61	1.51024e+08	-42827.2  
2353.41	1.49912e+08	-65563.2  
2355.21	1.48875e+08	-82000.4  
2357	1.47906e+08	-55071  
2358.8	1.46978e+08	-76867.4  
2360.59	1.46039e+08	-63620.2  
2362.38	1.45171e+08	-61961.4  
2364.17	1.4428e+08	-69600  
2365.95	1.43656e+08	-93356.8  
2367.74	1.42913e+08	-99719.4  
2369.53	1.4226e+08	-87783  
2371.31	1.41554e+08	-97666.2  
2373.09	1.40946e+08	-98646.4  
2374.87	1.40414e+08	-100990  
2376.65	1.39963e+08	-111946  
2378.43	1.39559e+08	-119149  
2380.21	1.39132e+08	-115942  
2381.98	1.38657e+08	-99127.8  
2383.76	1.38322e+08	-120710  
2385.53	1.38024e+08	-124306  
2387.3	1.37793e+08	-131260  
2389.07	1.37584e+08	-128917  
2390.84	1.37343e+08	-146618  
2392.61	1.37099e+08	-135517  
2394.37	1.36971e+08	-159796  
2396.14	1.36885e+08	-146114  
2397.9	1.36809e+08	-160097  
2399.66	1.36657e+08	-152517  
2401.43	1.36586e+08	-173519  
2403.18	1.36587e+08	-163792  
2404.94	1.36628e+08	-166970  
2406.7	1.36606e+08	-183895  
2408.46	1.36657e+08	-178275  
2410.21	1.3669e+08	-169447  
2411.96	1.36629e+08	-190484  
2413.71	1.36698e+08	-192189  
2415.46	1.36729e+08	-188552  
2417.21	1.36715e+08	-195054  
2418.96	1.36693e+08	-191267  
2420.71	1.36706e+08	-199468  
2422.45	1.36722e+08	-205390  
2424.19	1.36835e+08	-226374  
2425.94	1.3674e+08	-200651  
2427.68	1.36704e+08	-200750  
2429.42	1.3664e+08	-206115  
2431.15	1.3662e+08	-219953  
2432.89	1.36544e+08	-217094  
2434.63	1.36403e+08	-228062  
2436.36	1.36317e+08	-215157  
2438.09	1.36178e+08	-236460  
2439.83	1.36041e+08	-237098  
2441.56	1.35894e+08	-224066  
2443.28	1.35708e+08	-222627  
2445.01	1.35551e+08	-229483  
2446.74	1.35192e+08	-216688  
2448.46	1.34888e+08	-224559  
2450.19	1.34604e+08	-216172  
2451.91	1.34378e+08	-238977  
2453.63	1.34056e+08	-225817  
2455.35	1.33747e+08	-236860  
2457.07	1.33297e+08	-237904  
2458.78	1.32966e+08	-226119  
2460.5	1.32659e+08	-231803  
2462.21	1.32247e+08	-235219  
2463.93	1.31696e+08	-228358  
2465.64	1.31169e+08	-222355  
2467.35	1.30672e+08	-220313  
2469.06	1.30269e+08	-227783  
2470.76	1.29819e+08	-221577  
2472.47	1.29296e+08	-209647  
2474.18	1.28809e+08	-241350  
2475.88	1.28252e+08	-198285  
2477.58	1.27555e+08	-226339  
2479.28	1.26968e+08	-223712  
2480.98	1.26323e+08	-212640  
2482.68	1.25725e+08	-208156  
2484.38	1.25128e+08	-204676  
2486.07	1.24491e+08	-195576  
2487.77	1.23844e+08	-203412  
2489.46	1.23214e+08	-182062  
2491.15	1.2256e+08	-189614  
2492.84	1.2187e+08	-177416  
2494.53	1.21247e+08	-179974  
2496.22	1.20501e+08	-176883  
2497.91	1.19709e+08	-179487  
2499.59	1.18972e+08	-182480  
2501.28	1.18175e+08	-169969  
2502.96	1.1736e+08	-171541  
2504.64	1.1657e+08	-163850  
2506.32	1.15715e+08	-166947  
2508	1.14896e+08	-149257  
2509.68	1.14026e+08	-178367  
2511.35	1.13129e+08	-171500  
2513.03	1.12239e+08	-161478  
2514.7	1.11237e+08	-153033  
2516.37	1.10261e+08	-158607  
2518.04	1.09345e+08	-154303  
2519.71	1.0831e+08	-143985  
2521.38	1.07345e+08	-127896  
2523.05	1.06345e+08	-149988  
2524.71	1.05321e+08	-132031  
2526.38	1.04233e+08	-135749  
2528.04	1.03247e+08	-134746  
2529.7	1.02193e+08	-130993  
2531.36	1.01167e+08	-131312  
2533.02	1.00138e+08	-129386  
2534.68	9.9057e+07	-109910  
2536.34	9.80637e+07	-103188  
2537.99	9.69909e+07	-124688  
2539.65	9.58948e+07	-105630  
2541.3	9.48169e+07	-123755  
2542.95	9.38103e+07	-98379.6  
2544.6	9.2876e+07	-115281  
2546.25	9.18068e+07	-115055  
2547.9	9.0781e+07	-96767.2  
2549.54	8.97601e+07	-74791  
2551.19	8.87425e+07	-108292  
